st.     I [mA]      I2 [muA] (l = 671nm, I(p) = 3.200)
===========================
0       1.190       3.51
10      1.145       3.21
20      1.097       2.82
30      1.047       2.37
40      1.000       1.92
50      0.967       1.53
60      0.944       1.21
70      0.935       1.02
80      0.942       0.97
90      0.962       1.08
100     0.994       1.33
110     1.040       1.70
120     1.086       2.15
130     1.132       2.61
140     1.171       3.04
150     1.198       3.38
160     1.206       3.56
170     1.194       3.58
180     1.171       3.45
190     1.133       3.17
200     1.086       2.79
210     1.038       2.35
220     0.996       1.92
230     0.963       1.52
240     0.944       1.21
250     0.939       1.02
260     0.947       0.97
270     0.973       1.08
280     1.014       1.35
290     1.065       1.75
300     1.120       2.22
310     1.173       2.72
320     1.215       3.16
330     1.241       3.50
340     1.247       3.69
350     1.231       3.68
